Phase,BJD,JD,V,V_error
0.325811334885657,2457610.47293982,2457610.46749,16.906,0.0418807832
0.331811504748963,2457610.47329983,2457610.46785,16.885,0.0402243707
0.337978497768447,2457610.47366985,2457610.46822,16.852,0.0410487515
0.343978667631745,2457610.47402986,2457610.46858,16.876,0.0422018957
0.349979000476502,2457610.47438988,2457610.46894,16.871,0.0404969135
0.355812502404056,2457610.47473989,2457610.46929,16.931,0.0446542271
0.361646004331611,2457610.4750899,2457610.46964,16.966,0.0457930126
0.367812997351095,2457610.47545992,2457610.47001,16.871,0.0449444101
0.374146503085896,2457610.47583993,2457610.47039,16.93,0.0457930126
0.380146835930645,2457610.47619995,2457610.47075,16.952,0.0454862617
0.386146998032928,2457610.47655996,2457610.47111,16.886,0.0432666153
0.392147330877684,2457610.47691998,2457610.47147,17.007,0.0446542271
0.398314168676734,2457610.47728999,2457610.47184,16.982,0.0449444101
0.40431450152149,2457610.47765001,2457610.4722,17.018,0.0421900462
0.410314671384796,2457610.47801002,2457610.47256,16.852,0.0416173041
0.416314833487078,2457610.47837003,2457610.47292,16.918,0.0435660418
0.422315166331828,2457610.47873005,2457610.47328,17.058,0.046141088
0.428148668259382,2457610.47908006,2457610.47363,16.902,0.0418807832
0.434649004911385,2457610.47947008,2457610.47402,17.079,0.0496487663
0.440649167013667,2457610.47983009,2457610.47438,16.954,0.049244289
0.446482831922673,2457610.48018011,2457610.47473,16.981,0.0468721666
0.452649669721723,2457610.48055012,2457610.4751,16.957,0.0497393205
0.458649831824005,2457610.48091013,2457610.47546,16.993,0.049244289
0.464650164668761,2457610.48127015,2457610.47582,17.048,0.0501198563
0.470650334532067,2457610.48163016,2457610.47618,17.047,0.0478852796
0.476650667376816,2457610.48199018,2457610.47654,17.01,0.0542033209
0.482650837240122,2457610.48235019,2457610.4769,16.836,0.0460434577
0.488817667278155,2457610.4827202,2457610.47727,17.046,0.0528393793
0.494984668058656,2457610.48309022,2457610.47764,16.964,0.0547083175
0.500984837921962,2457610.48345023,2457610.478,17.044,0.0559464029
0.506985170766711,2457610.48381025,2457610.47836,16.871,0.0543783045
0.513318668740496,2457610.48419026,2457610.47874,17.028,0.0604152299
0.519152333649501,2457610.48454028,2457610.47909,16.987,0.0627694193
0.524985835577056,2457610.48489029,2457610.47944,16.789,0.0566127194
0.530985997679338,2457610.4852503,2457610.4798,16.884,0.0446542271
0.536986338285111,2457610.48561032,2457610.48016,17.008,0.0519711458
0.543153168323144,2457610.48598033,2457610.48053,16.905,0.0466476152
0.555320331205927,2457610.48671036,2457610.48126,16.966,0.0507740091
0.561653999922179,2457610.48709038,2457610.48164,16.806,0.0424381903
0.567654169785484,2457610.48745039,2457610.482,16.933,0.0485489444
0.573654331887767,2457610.4878104,2457610.48236,16.998,0.046141088
0.579488004557788,2457610.48816042,2457610.48271,16.79,0.046400431
0.58548816666007,2457610.48852043,2457610.48307,16.851,0.04580393
0.591488499504827,2457610.48888045,2457610.48343,16.928,0.0477074418
0.597322001432381,2457610.48923046,2457610.48378,16.938,0.0490917508
0.603655670148633,2457610.48961048,2457610.48416,16.999,0.0502493781
0.609489164315164,2457610.48996049,2457610.48451,16.843,0.0472016949
0.616155998160444,2457610.4903605,2457610.48491,16.898,0.0485489444
0.622156331005201,2457610.49072052,2457610.48527,16.988,0.0502493781
0.628156500868499,2457610.49108053,2457610.48563,16.899,0.0488773976
0.633990165777504,2457610.49143055,2457610.48598,16.973,0.051623638
0.639823667705059,2457610.49178056,2457610.48633,16.967,0.0528393793
0.645823837568365,2457610.49214057,2457610.48669,16.875,0.0477074418
0.651824170413121,2457610.49250059,2457610.48705,16.998,0.0457930126
0.658157668386899,2457610.4928806,2457610.48743,16.882,0.0468721666
0.664158001231655,2457610.49324062,2457610.48779,17.057,0.049244289
0.66999150315921,2457610.49359063,2457610.48814,16.982,0.0468721666
0.682492001913488,2457610.49434066,2457610.48889,16.871,0.0466154481
0.68849216401577,2457610.49470067,2457610.48925,16.937,0.0496487663
0.694159168750048,2457610.49504069,2457610.48959,16.996,0.0493963561
0.70015933085233,2457610.4954007,2457610.48995,17.05,0.0514781507
0.706659667504333,2457610.49579072,2457610.49034,16.949,0.0490917508
0.712493169431887,2457610.49614073,2457610.49069,16.981,0.0480208288
0.71849333153417,2457610.49650074,2457610.49105,16.973,0.0485489444
0.724493664378926,2457610.49686076,2457610.49141,16.986,0.051623638
0.730327166306481,2457610.49721077,2457610.49176,16.934,0.055470713
0.736827502958477,2457610.49760079,2457610.49215,17.065,0.0507740091
0.742827665060759,2457610.4979608,2457610.49251,17.008,0.0519711458
0.748661337730788,2457610.49831082,2457610.49286,16.927,0.053
0.754828167768821,2457610.49868083,2457610.49323,17.078,0.0590592922
0.760994997806847,2457610.49905084,2457610.4936,17.032,0.0578013841
0.766995330651604,2457610.49941086,2457610.49396,17.047,0.0591692488
0.772995500514909,2457610.49977087,2457610.49432,17.12,0.064007812
0.778995833359659,2457610.50013089,2457610.49468,17.086,0.0648845128
0.784662667351469,2457610.5004709,2457610.49502,17.131,0.0667308025
0.790662837214768,2457610.50083091,2457610.49538,17.143,0.0684762733
0.797329834041499,2457610.50123093,2457610.49578,17.083,0.0568242906
0.803163335969053,2457610.50158094,2457610.49613,17.083,0.0430464865
0.80916366881381,2457610.50194096,2457610.49649,17.114,0.0483011387
0.815330498851836,2457610.50231097,2457610.49686,17.153,0.0478852796
0.821330831696592,2457610.50267099,2457610.49722,17.122,0.0478539445
0.827331001559898,2457610.503031,2457610.49758,17.124,0.0465295605
0.833331171423197,2457610.50339101,2457610.49794,17.116,0.0483011387
0.839164836332202,2457610.50374103,2457610.49829,17.081,0.0421900462
0.845164998434484,2457610.50410104,2457610.49865,17.07,0.0447772264
0.851498667150736,2457610.50448106,2457610.49903,16.975,0.0427200187
0.857665504949793,2457610.50485107,2457610.4994,17.173,0.0469574275
0.863665837794542,2457610.50521109,2457610.49976,17.078,0.0442944692
0.869665999896824,2457610.5055711,2457610.50012,17.125,0.0442944692
0.875499501824379,2457610.50592111,2457610.50047,17.07,0.049244289
0.881499834669135,2457610.50628113,2457610.50083,17.182,0.0469574275
0.887500004532441,2457610.50664114,2457610.50119,17.078,0.0420594817
0.893666997551918,2457610.50701116,2457610.50156,17.094,0.0439089968
0.899667167415224,2457610.50737117,2457610.50192,17.179,0.0491934955
0.90566733727853,2457610.50773118,2457610.50228,17.093,0.0475078941
0.911667670123279,2457610.5080912,2457610.50264,17.054,0.0470106371
0.918167836032808,2457610.50848121,2457610.50303,17.095,0.051
0.924168168877564,2457610.50884123,2457610.50339,17.003,0.0480208288
0.930168330979846,2457610.50920124,2457610.50375,17.068,0.0488773976
0.936168671585619,2457610.50956126,2457610.50411,17.019,0.0466476152
0.942168833687902,2457610.50992127,2457610.50447,17.016,0.0447772264
0.948335671486959,2457610.51029128,2457610.50484,17.193,0.0456179789
0.954336004331708,2457610.5106513,2457610.5052,16.973,0.0449444101
0.96033616643399,2457610.51101131,2457610.50556,17.019,0.0434165867
0.966169831342995,2457610.51136133,2457610.50591,17.067,0.0456508488
0.97200333327055,2457610.51171134,2457610.50626,16.988,0.046141088
0.978336831244334,2457610.51209135,2457610.50664,17.128,0.0447772264
0.984337164089084,2457610.51245137,2457610.507,16.925,0.0391152144
0.99033733395239,2457610.51281138,2457610.50736,17.034,0.0408166633
0.99650433473289,2457610.5131814,2457610.50773,16.976,0.0427200187
1.0025045045962,2457610.51354141,2457610.50809,16.965,0.0413400532
1.00867149761568,2457610.51391143,2457610.50846,16.906,0.0424381903
1.01467166747898,2457610.51427144,2457610.50882,16.889,0.039661064
1.02067183734228,2457610.51463145,2457610.50918,16.862,0.039408121
1.02667217018704,2457610.51499147,2457610.50954,16.954,0.0402243707
1.03267233228932,2457610.51535148,2457610.5099,16.863,0.0388329757
1.0451728310436,2457610.51610151,2457610.51065,16.996,0.0435660418
1.05100633297116,2457610.51645152,2457610.511,16.919,0.0427200187
1.05683999788016,2457610.51680154,2457610.51135,16.952,0.0391152144
1.06284016774347,2457610.51716155,2457610.51171,16.804,0.039408121
1.06884033760677,2457610.51752156,2457610.51207,16.958,0.0413400532
1.07484067045152,2457610.51788158,2457610.51243,16.971,0.0427200187
1.0808408325538,2457610.51824159,2457610.51279,16.79,0.0402243707
1.08684116539856,2457610.51860161,2457610.51315,16.896,0.0418807832
1.09300800319761,2457610.51897162,2457610.51352,16.842,0.04
1.09950833208859,2457610.51936164,2457610.51391,16.85,0.0422018957
1.1055085019519,2457610.51972165,2457610.51427,16.679,0.0440454311
1.11150866405418,2457610.52008166,2457610.51463,16.637,0.0390512484
1.11750900465995,2457610.52044168,2457610.51499,16.62,0.0418688428
1.12950949960699,2457610.52116171,2457610.51571,16.841,0.04
1.13534300153454,2457610.52151172,2457610.51606,16.495,0.0382099463
1.14751016441733,2457610.52224175,2457610.51679,16.608,0.0382883794
1.16567750492444,2457610.52333179,2457610.51788,16.648,0.0390512484
1.17167766702672,2457610.5236918,2457610.51824,16.668,0.0418688428
1.17767799987148,2457610.52405182,2457610.5186,16.724,0.0428018691
1.18367816973478,2457610.52441183,2457610.51896,16.589,0.0403608721
1.18984517051528,2457610.52478185,2457610.51933,16.657,0.0354682957
1.19601200055331,2457610.52515186,2457610.5197,16.684,0.040607881
1.20184566546232,2457610.52550188,2457610.52005,16.613,0.0403608721
1.21401266536365,2457610.5262319,2457610.52078,16.606,0.0434165867
1.22034633407991,2457610.52661192,2457610.52116,16.527,0.0403112887
1.2263465039432,2457610.52697193,2457610.52152,16.574,0.0403608721
1.23234683678796,2457610.52733195,2457610.52188,16.647,0.0404598566
1.23851366682599,2457610.52770196,2457610.52225,16.69,0.0408044115
1.24434716875355,2457610.52805197,2457610.5226,16.655,0.0418688428
1.25018083366255,2457610.52840199,2457610.52295,16.664,0.0434165867
