Phase,BJD,V,V_error
0.319657502075643,2457998.31257059,12.481,0.026
0.337391001483411,2457998.3136346,12.467,0.026
0.377708002304644,2457998.31605362,12.457,0.024
0.395074832253158,2457998.31709563,12.46,0.023
0.412241668440402,2457998.31812564,12.458,0.024
0.429608498389825,2457998.31916765,12.441,0.024
0.44715850396733,2457998.32022065,12.41,0.023
0.464708664765567,2457998.32127366,12.401,0.023
0.482275503998608,2457998.32232767,12.393,0.022
0.499825664795935,2457998.32338068,12.359,0.023
0.517575834877789,2457998.32444569,12.341,0.022
0.535126003436744,2457998.3254987,12.327,0.022
0.553059504367411,2457998.32657471,12.298,0.021
0.570809503707096,2457998.32763971,12.309,0.021
0.588559666028232,2457998.32870472,12.299,0.021
0.606109834587187,2457998.32975773,12.289,0.021
0.623860004669041,2457998.33082274,12.295,0.021
0.641610166989267,2457998.33188775,12.304,0.021
0.659160335548222,2457998.33294076,12.312,0.02
0.67709366573672,2457998.33401676,12.323,0.02
0.695043837341473,2457998.33509377,12.326,0.02
0.71259399813971,2457998.33614678,12.332,0.02
0.730344168221563,2457998.33721179,12.345,0.02
0.74827766915223,2457998.3382878,12.333,0.02
0.766227832995355,2457998.33936481,12.371,0.02
0.78339449844043,2457998.34039481,12.354,0.02
0.800944666999385,2457998.34144782,12.388,0.02
0.818311504709527,2457998.34248983,12.394,0.02
0.835661663984865,2457998.34353084,12.419,0.02
0.853028501695007,2457998.34457285,12.425,0.02
0.870578670253963,2457998.34562586,12.4,0.02
0.887745498679578,2457998.34665587,12.426,0.02
0.90531216717045,2457998.34770987,12.422,0.02
0.922479003357694,2457998.34873988,12.443,0.019
0.940412504288361,2457998.34981589,12.438,0.019
0.957962665086598,2457998.3508689,12.441,0.019
0.97591283669135,2457998.35194591,12.446,0.019
0.993079502135515,2457998.35297591,12.459,0.019
1.01042966917157,2457998.35401692,12.454,0.019
1.027796499121,2457998.35505893,12.478,0.019
1.04554666920285,2457998.35612394,12.451,0.019
1.0630968377618,2457998.35717695,12.461,0.019
1.08046350472978,2457998.35821895,12.464,0.019
1.09801366552711,2457998.35927196,12.48,0.019
1.11576383560896,2457998.36033697,12.472,0.018
1.13331400416791,2457998.36138998,12.469,0.018
1.15086416496615,2457998.36244299,12.461,0.018
1.16899750443827,2457998.36353099,12.489,0.018
1.1867476667594,2457998.364596,12.476,0.018
1.20469783060253,2457998.36567301,12.48,0.018
1.22283133305609,2457998.36676102,12.482,0.018
1.24038150161505,2457998.36781403,12.464,0.018
1.25831500254571,2457998.36889004,12.464,0.018
1.27606516486685,2457998.36995505,12.479,0.018
1.29419850433897,2457998.37104305,12.455,0.018
1.31233199903181,2457998.37213106,12.48,0.018
1.33046550148538,2457998.37321907,12.474,0.018
1.34763233767262,2457998.37424908,12.472,0.018
1.365949170975,2457998.37534809,12.472,0.018
1.38408250268549,2457998.37643609,12.451,0.018
1.4012660017861,2457998.3774671,12.479,0.018
1.41938283356558,2457998.37855411,12.434,0.018
1.43733299740961,2457998.37963112,12.45,0.018
1.46741650160402,2457998.38143613,12.426,0.017
1.48478333155344,2457998.38247814,12.412,0.017
1.5025335016353,2457998.38354315,12.406,0.017
1.51970016708037,2457998.38457315,12.368,0.017
1.53745033716223,2457998.38563816,12.366,0.017
1.55461716558784,2457998.38666817,12.327,0.017
1.57275066804141,2457998.38775618,12.29,0.017
1.59068416897208,2457998.38883219,12.306,0.016
1.60863416983466,2457998.38990919,12.266,0.017
1.62598433687072,2457998.3909502,12.274,0.016
1.64315116529724,2457998.39198021,12.281,0.016
1.6614846692737,2457998.39308022,12.286,0.016
1.67941817020437,2457998.39415623,12.306,0.016
1.69678483717144,2457998.39519823,12.334,0.016
1.71491833186428,2457998.39628624,12.316,0.016
1.73305183431785,2457998.39737425,12.341,0.016
1.7508020043997,2457998.39843926,12.34,0.016
1.76815217143576,2457998.39948027,12.366,0.016
1.7855188306421,2457998.40052227,12.382,0.016
1.80306899920106,2457998.40157528,12.374,0.016
1.8202358353883,2457998.40260529,12.359,0.016
1.83818599923234,2457998.4036823,12.383,0.016
1.85593599857202,2457998.4047473,12.387,0.016
1.87386949950269,2457998.40582331,12.4,0.016
1.89180300043336,2457998.40689932,12.407,0.016
1.90975316427648,2457998.40797633,12.413,0.016
1.92768666520715,2457998.40905234,12.41,0.016
1.94543666454683,2457998.41011734,12.447,0.016
1.9633701654775,2457998.41119335,12.432,0.016
1.98132033708225,2457998.41227036,12.447,0.016
1.9994538317751,2457998.41335837,12.436,0.016
2.01758733422866,2457998.41444638,12.444,0.016
2.03533733356744,2457998.41551138,12.441,0.016
2.05327083449811,2457998.41658739,12.449,0.016
2.07062100153416,2457998.4176284,12.447,0.016
2.08895449774991,2457998.41872841,12.444,0.016
2.10688799868058,2457998.41980442,12.459,0.016
2.12483799954316,2457998.42088142,12.453,0.016
2.14277150047383,2457998.42195743,12.467,0.016
2.16052167055568,2457998.42302244,12.453,0.016
2.17827183287591,2457998.42408745,12.471,0.016
2.19620517082512,2457998.42516345,12.456,0.016
2.21415533466916,2457998.42624046,12.472,0.016
2.23267216949444,2457998.42735147,12.489,0.016
2.24983899792096,2457998.42838148,12.464,0.016
2.26797233739308,2457998.42946948,12.491,0.016
2.28590583056211,2457998.43054549,12.476,0.015
2.30403933301568,2457998.4316335,12.488,0.016
2.32198950462043,2457998.43271051,12.497,0.016
2.33972283328603,2457998.43377451,12.474,0.015
2.35767300489078,2457998.43485152,12.471,0.015
2.37580649958363,2457998.43593953,12.48,0.015
2.39355666966549,2457998.43700454,12.488,0.015
2.41169016435742,2457998.43809255,12.475,0.015
2.42962350230664,2457998.43916855,12.47,0.015
2.44794033560902,2457998.44026756,12.457,0.015
2.46569049793015,2457998.44133257,12.434,0.015
2.48364066953491,2457998.44240958,12.453,0.015
2.5017740012463,2457998.44349758,12.422,0.015
2.51970750217697,2457998.44457359,12.416,0.015
2.53784100463054,2457998.4456616,12.406,0.015
2.55597449932247,2457998.44674961,12.371,0.015
2.57410783103387,2457998.44783761,12.349,0.014
2.59145799806993,2457998.44887862,12.352,0.014
2.60959150052349,2457998.44996663,12.337,0.014
2.62754166436753,2457998.45104364,12.326,0.014
2.64529167146793,2457998.45210864,12.307,0.014
2.73440899731031,2457998.45745568,12.359,0.015
2.75234249824098,2457998.45853169,12.35,0.015
2.77029249910265,2457998.45960869,12.373,0.015
2.78822600003332,2457998.4606847,12.402,0.015
2.80577616859227,2457998.46173771,12.404,0.015
2.84127633801381,2457998.46386772,12.419,0.015
2.85902650033495,2457998.46493273,12.407,0.015
2.87716000278851,2457998.46602074,12.432,0.015
2.89432683121413,2457998.46705075,12.428,0.015
2.91246017068624,2457998.46813875,12.43,0.015
2.93021033300738,2457998.46920376,12.44,0.015
2.94776050156634,2457998.47025677,12.446,0.015
2.96512716853431,2457998.47129877,12.446,0.015
2.98267733709326,2457998.47235178,12.452,0.014
3.00022749789059,2457998.47340479,12.455,0.015
3.01816099882126,2457998.4744808,12.449,0.015
3.03572766731213,2457998.4755348,12.457,0.015
3.0534611667199,2457998.47659881,12.445,0.015
3.07102799819222,2457998.47765282,12.444,0.015
3.08837800224683,2457998.47869382,12.455,0.015
3.10632816608995,2457998.47977083,12.463,0.015
3.12426166702062,2457998.48084684,12.466,0.015
3.14162850473076,2457998.48188885,12.461,0.015
3.15937850407045,2457998.48295385,12.462,0.015
3.17711200347821,2457998.48401786,12.467,0.015
3.19486216579935,2457998.48508287,12.458,0.015
3.21241217137685,2457998.48613587,12.458,0.015
3.22997900284827,2457998.48718988,12.454,0.015
3.24752917140722,2457998.48824289,12.461,0.015
3.26527917074691,2457998.48930789,12.469,0.015
3.28282933154514,2457998.4903609,12.475,0.015
3.30076283247581,2457998.49143691,12.478,0.015
3.31851300255767,2457998.49250192,12.471,0.015
3.33587966952473,2457998.49354392,12.489,0.015
3.35324649947415,2457998.49458593,12.482,0.015
3.3704133356614,2457998.49561594,12.477,0.015
3.388146664327,2457998.49667994,12.476,0.015
3.40609683593175,2457998.49775695,12.477,0.015
3.42384699825197,2457998.49882196,12.459,0.015
3.44139700382948,2457998.49987496,12.454,0.015
3.45914716615061,2457998.50093997,12.464,0.015
3.47649733318667,2457998.50198098,12.445,0.015
3.49424750326853,2457998.50304599,12.435,0.015
3.51199750260821,2457998.50411099,12.43,0.014
3.52974766492844,2457998.505176,12.41,0.014
3.54749766426812,2457998.506241,12.405,0.014
3.56504783282708,2457998.50729401,12.4,0.014
3.58279800290893,2457998.50835902,12.4,0.014
3.60034817146789,2457998.50941203,12.357,0.014
3.61771483067423,2457998.51045403,12.357,0.014
3.63526499923319,2457998.51150704,12.345,0.014
3.65301516931504,2457998.51257205,12.329,0.014
3.67056516713183,2457998.51362505,12.34,0.014
3.68811533569078,2457998.51467806,12.318,0.014
3.70624883814435,2457998.51576607,12.339,0.014
3.72399883748403,2457998.51683107,12.318,0.014
3.74193233065307,2457998.51790708,12.34,0.014
3.75949916988611,2457998.51896109,12.344,0.014
3.7770491677029,2457998.52001409,12.371,0.014
3.79439933473895,2457998.5210551,12.365,0.014
3.81196616621128,2457998.52210911,12.385,0.014
3.82951616402715,2457998.52316211,12.38,0.014
3.8468830017373,2457998.52420412,12.382,0.014
3.86481650266796,2457998.52528013,12.39,0.014
3.88274983285646,2457998.52635613,12.398,0.014
3.90070000446121,2457998.52743314,12.404,0.014
3.91805017149727,2457998.52847415,12.425,0.014
3.93580017083696,2457998.52953915,12.44,0.014
3.95335033163428,2457998.53059216,12.442,0.014
3.97091717086732,2457998.53164617,12.446,0.014
3.98866717020701,2457998.53271117,12.458,0.014
4.00640066961478,2457998.53377518,12.443,0.014
4.02435083345881,2457998.53485219,12.45,0.014
4.04190083127469,2457998.53590519,12.463,0.014
4.05945099983364,2457998.5369582,12.473,0.014
4.0774011714384,2457998.53803521,12.467,0.014
4.09533450162689,2457998.53911121,12.485,0.014
4.11270133157632,2457998.54015322,12.472,0.014
4.13005149861237,2457998.54119423,12.474,0.014
4.14741816557944,2457998.54223623,12.489,0.014
4.16478500328958,2457998.54327824,12.491,0.014
4.18213517032564,2457998.54431925,12.498,0.014
4.19950183729361,2457998.54536125,12.465,0.014
4.21705199809185,2457998.54641426,12.478,0.014
4.23441866505891,2457998.54745626,12.503,0.014
4.25178550276905,2457998.54849827,12.506,0.014
4.26951900217682,2457998.54956228,12.492,0.014
4.28746900303941,2457998.55063928,12.492,0.014
4.30501917159836,2457998.55169229,12.499,0.014
4.3227693339195,2457998.5527573,12.508,0.014
4.34070266410708,2457998.5538333,12.494,0.014
4.35806950181723,2457998.55487531,12.513,0.014
4.37543633176665,2457998.55591732,12.498,0.014
4.39298633734416,2457998.55697032,12.499,0.014
4.41035316729358,2457998.55801233,12.499,0.014
4.42751983273774,2457998.55904233,12.504,0.014
4.44565333519131,2457998.56013034,12.501,0.014
4.46300350222737,2457998.56117135,12.505,0.014
4.48055350004415,2457998.56222435,12.501,0.014
4.49812033151648,2457998.56327836,12.48,0.014
4.51605383244714,2457998.56435437,12.456,0.014
4.53360383802465,2457998.56540737,12.45,0.014
4.55117066949606,2457998.56646138,12.418,0.014
4.56890399816166,2457998.56752538,12.422,0.014
4.5864708373947,2457998.56857939,12.433,0.014
4.60363766582123,2457998.5696094,12.398,0.014
4.62118767139873,2457998.5706624,12.386,0.014
4.63893783371896,2457998.57172741,12.368,0.014
4.65628800075501,2457998.57276842,12.334,0.014
4.6742380016176,2457998.57384542,12.325,0.014
4.69158816865365,2457998.57488643,12.318,0.014
4.70915483714452,2457998.57594043,12.294,0.014
4.72688833655229,2457998.57700444,12.323,0.014
4.74445516802371,2457998.57805845,12.338,0.014
4.76200516584049,2457998.57911145,12.35,0.014
4.77955533439945,2457998.58016446,12.344,0.014
4.7973055044813,2457998.58122947,12.37,0.014
4.81485550229809,2457998.58228247,12.394,0.014
4.83260566461831,2457998.58334748,12.378,0.014
4.85055583622307,2457998.58442449,12.414,0.014
4.86810583403985,2457998.58547749,12.431,0.015
4.88565600259881,2457998.5865305,12.447,0.015
4.90320600041559,2457998.5875835,12.442,0.015
4.92057283812574,2457998.58862551,12.446,0.015
4.93812299892306,2457998.58967852,12.453,0.015
4.95548966589104,2457998.59072052,12.462,0.015
4.97285650360118,2457998.59176253,12.469,0.015
4.99078983378968,2457998.59283853,12.461,0.015
5.00834000234863,2457998.59389154,12.476,0.016
5.02609016466886,2457998.59495655,12.469,0.016
5.04364017024636,2457998.59600955,12.472,0.016
5.0611903310446,2457998.59706256,12.483,0.016
5.07875699953547,2457998.59811656,12.499,0.016
5.1190740003567,2457998.60053558,12.515,0.016
5.13700733054429,2457998.60161158,12.508,0.016
5.15494083147496,2457998.60268759,12.501,0.016
5.1723076691851,2457998.6037296,12.5,0.016
5.1902409993736,2457998.6048056,12.493,0.016
5.20780783084592,2457998.60585961,12.509,0.016
5.22555783794633,2457998.60692461,12.51,0.016
5.24272466637194,2457998.60795462,12.527,0.016
5.26085816882551,2457998.60904263,12.516,0.016
5.27859149749111,2457998.61010663,12.515,0.016
5.29575833367835,2457998.61113664,12.525,0.016
5.3135085037602,2457998.61220165,12.525,0.017
5.33125850309989,2457998.61326665,12.524,0.017
5.34880866389722,2457998.61431966,12.532,0.017
5.36617533086519,2457998.61536166,12.535,0.017
5.38392550094704,2457998.61642667,12.524,0.018
5.40147549876383,2457998.61747967,12.534,0.017
5.41884233647397,2457998.61852168,12.552,0.017
5.4365924987942,2457998.61958669,12.525,0.018
5.45432583522052,2457998.62065069,12.553,0.018
5.47207599754165,2457998.6217157,12.54,0.018
5.48962600311916,2457998.6227687,12.533,0.018
5.50719283459148,2457998.62382271,12.53,0.018
5.52474300315043,2457998.62487572,12.503,0.018
5.54249300248921,2457998.62594072,12.519,0.018
5.55984316952527,2457998.62698173,12.502,0.018
5.57720983649324,2457998.62802373,12.486,0.018
5.59514333742391,2457998.62909974,12.492,0.018
5.61251016737333,2457998.63014175,12.465,0.019
