Phase,BJD,JD,V,V_error
0.7590119593,2457615.20414462,2457615.20387,17.58,0.0691158448
0.7653484738,2457615.20461458,2457615.20434,17.677,0.0741687266
0.7719545077,2457615.20510453,2457615.20483,17.588,0.0691809222
0.7784258541,2457615.20558449,2457615.20531,17.629,0.0671863081
0.7848971942,2457615.20606445,2457615.20579,17.66,0.0711758386
0.7910988706,2457615.20652441,2457615.20625,17.774,0.0781600921
0.7974353851,2457615.20699437,2457615.20672,17.646,0.066121101
0.804041419,2457615.20748432,2457615.20721,17.562,0.066121101
0.8105127654,2457615.20796428,2457615.20769,17.516,0.0641950154
0.8167144417,2457615.20842424,2457615.20815,17.14,0.0452769257
0.8235902775,2457615.2089342,2457615.20866,17.566,0.0711758386
0.8299267857,2457615.20940416,2457615.20913,17.499,0.0681835757
0.8764392517,2457615.21285385,2457615.21258,17.761,0.0761051904
0.8826409343,2457615.21331381,2457615.21304,17.727,0.0771621669
0.9038074929,2457615.21488367,2457615.21461,17.848,0.0841486779
0.9100091693,2457615.21534363,2457615.21507,17.544,0.0641950154
0.9163456838,2457615.21581359,2457615.21554,17.701,0.0711125868
0.9229518558,2457615.21630355,2457615.21603,17.704,0.0771038261
0.929288364,2457615.21677351,2457615.2165,17.506,0.0622012862
0.9356248723,2457615.21724347,2457615.21697,17.699,0.0721734023
0.9425005762,2457615.21775342,2457615.21748,17.658,0.0691809222
0.9489719163,2457615.21823338,2457615.21796,17.707,0.0781600921
0.9553084245,2457615.21870334,2457615.21843,17.792,0.0811541743
0.9616449391,2457615.2191733,2457615.2189,17.354,0.057218878
0.9682509729,2457615.21966325,2457615.21939,17.532,0.066189123
0.9745874875,2457615.22013321,2457615.21986,17.588,0.0751664819
0.9807891638,2457615.22059317,2457615.22032,17.526,0.0812219182
0.9872605102,2457615.22107313,2457615.2208,17.502,0.0782304289
0.9937318503,2457615.22155309,2457615.22128,17.572,0.0882043083
1.0003378905,2457615.22204304,2457615.22177,17.451,0.0882779701
1.0134154026,2457615.22301296,2457615.22274,17.438,0.0952575456
1.0198867427,2457615.22349292,2457615.22322,17.506,0.0641248782
1.0260884254,2457615.22395288,2457615.22368,17.429,0.0541479455
1.0325596274,2457615.22443283,2457615.22416,17.454,0.0592114854
1.0390309738,2457615.22491279,2457615.22464,17.438,0.0602079729
1.0455023139,2457615.22539275,2457615.22512,17.632,0.0671863081
1.051973654,2457615.22587271,2457615.2256,17.561,0.0631268564
1.0581753366,2457615.22633267,2457615.22606,17.54,0.0611310069
1.0646465449,2457615.22681262,2457615.22654,17.355,0.0552268051
1.0713875488,2457615.22731258,2457615.22704,17.57,0.0641950154
1.077724057,2457615.22778254,2457615.22751,17.651,0.0721734023
1.084330229,2457615.2282725,2457615.228,17.526,0.0641950154
1.0906667373,2457615.22874246,2457615.22847,17.353,0.0542309875
1.0970031137,2457615.22921241,2457615.22894,17.406,0.061204575
1.1034744601,2457615.22969237,2457615.22942,17.489,0.066189123
1.1099458002,2457615.23017233,2457615.2299,17.422,0.0631981012
1.1164171403,2457615.23065229,2457615.23038,17.357,0.0662721661
1.1290900312,2457615.2315922,2457615.23132,17.258,0.0652763357
1.1359658607,2457615.23210216,2457615.23183,17.596,0.1002447006
1.1486388835,2457615.23304208,2457615.23277,17.257,0.0832946577
1.1551100917,2457615.23352203,2457615.23325,17.272,0.092347171
1.1617162638,2457615.23401199,2457615.23374,17.119,0.081394103
1.168052772,2457615.23448195,2457615.23421,17.264,0.090354856
1.1870623093,2457615.23589183,2457615.23562,17.343,0.0732461603
1.1936683431,2457615.23638178,2457615.23611,17.177,0.0481663783
1.2002745151,2457615.23687174,2457615.2366,17.23,0.0522398315
1.2067458615,2457615.2373517,2457615.23708,17.299,0.0562227712
1.2133518954,2457615.23784165,2457615.23757,17.342,0.0562227712
1.2196884099,2457615.23831161,2457615.23804,17.452,0.0602079729
1.2260249182,2457615.23878157,2457615.23851,17.392,0.0622012862
1.2323614264,2457615.23925153,2457615.23898,17.373,0.061204575
1.2389676047,2457615.23974149,2457615.23947,17.357,0.066189123
1.2516404893,2457615.2406814,2457615.24041,17.247,0.0632850693
1.2581118295,2457615.24116136,2457615.24089,17.524,0.0862090482
1.2649876652,2457615.24167132,2457615.2414,17.573,0.0931933474
1.2711893416,2457615.24213128,2457615.24186,17.434,0.0872811549
1.2776605499,2457615.24261123,2457615.24234,17.541,0.1052330746
1.28413189,2457615.24309119,2457615.24282,17.401,0.0963327566
1.2906032364,2457615.24357115,2457615.2433,17.611,0.1242577965
1.2968049127,2457615.24403111,2457615.24376,17.402,0.1033102125
1.3032762591,2457615.24451107,2457615.24424,17.504,0.1162755348
1.3097474611,2457615.24499102,2457615.24472,17.199,0.095336247
1.3162188075,2457615.24547098,2457615.2452,17.45,0.1253235812
1.3226901476,2457615.24595094,2457615.24568,17.539,0.1402889875
1.3550467227,2457615.24835073,2457615.24808,17.148,0.0874642784
1.3613832309,2457615.24882069,2457615.24855,17.427,0.0681835757
1.3740561156,2457615.2497606,2457615.24949,17.828,0.0811541743
1.3806622938,2457615.25025056,2457615.24998,17.563,0.0631981012
1.387133634,2457615.25073052,2457615.25046,17.663,0.0741687266
1.4066823544,2457615.25218039,2457615.25191,17.764,0.0811541743
1.4193553771,2457615.25312031,2457615.25285,17.62,0.0721734023
1.4258265791,2457615.25360026,2457615.25333,17.565,0.0671863081
1.4322979255,2457615.25408022,2457615.25381,17.805,0.0931343116
1.4384996019,2457615.25454018,2457615.25427,17.688,0.0751664819
1.4449709483,2457615.25502014,2457615.25475,17.562,0.0671863081
1.4514422884,2457615.2555001,2457615.25523,17.595,0.0691809222
1.4581831541,2457615.25600005,2457615.25573,17.826,0.0851469318
1.4645196687,2457615.25647001,2457615.2562,17.405,0.0582151183
1.4711258407,2457615.25695997,2457615.25669,17.725,0.0761642961
1.4774623489,2457615.25742993,2457615.25716,17.625,0.0681835757
1.4837987253,2457615.25789988,2457615.25763,17.737,0.0781600921
1.4901352398,2457615.25836984,2457615.2581,17.601,0.0741687266
1.4967414118,2457615.2588598,2457615.25859,17.676,0.0761642961
1.5030779201,2457615.25932976,2457615.25906,17.781,0.083150466
1.5094144283,2457615.25979972,2457615.25953,17.645,0.0721734023
1.5292328125,2457615.26126959,2457615.261,17.777,0.083150466
1.5354344951,2457615.26172955,2457615.26146,17.697,0.0761642961
1.5483770435,2457615.26268946,2457615.26242,17.516,0.0622012862
1.5547135517,2457615.26315942,2457615.26289,17.594,0.0781600921
1.5610500662,2457615.26362938,2457615.26336,17.645,0.0721734023
1.5673865745,2457615.26409934,2457615.26383,17.564,0.0681835757
1.5739926146,2457615.26458929,2457615.26432,17.658,0.0751664819
1.5803291229,2457615.26505925,2457615.26479,17.61,0.0711758386
1.5870701268,2457615.26555921,2457615.26529,17.58,0.0691809222
1.5936762988,2457615.26604917,2457615.26578,17.603,0.0711758386
1.6000126752,2457615.26651912,2457615.26625,17.66,0.0741687266
1.6062143578,2457615.26697908,2457615.26671,17.569,0.0701783442
1.6126856979,2457615.26745904,2457615.26719,17.592,0.0691809222
1.619157038,2457615.267939,2457615.26767,17.568,0.0681835757
1.6256283782,2457615.26841896,2457615.26815,17.554,0.0701783442
1.6318300608,2457615.26887892,2457615.26861,17.624,0.0731710325
1.6383012691,2457615.26935887,2457615.26909,17.468,0.0651920241
1.6447726092,2457615.26983883,2457615.26957,17.586,0.0721734023
1.6515136131,2457615.27033879,2457615.27007,17.706,0.0811541743
1.6578501213,2457615.27080875,2457615.27054,17.549,0.0681835757
1.6644561615,2457615.2712987,2457615.27103,17.475,0.0651920241
1.6771291842,2457615.27223862,2457615.27197,17.629,0.0761642961
1.6834656925,2457615.27270858,2457615.27244,17.627,0.0801560977
1.6900717326,2457615.27319853,2457615.27293,17.533,0.0691809222
1.6964082409,2457615.27366849,2457615.2734,17.564,0.0731710325
1.7027447554,2457615.27413845,2457615.27387,17.401,0.061204575
1.7158221357,2457615.27510836,2457615.27484,17.421,0.0622012862
1.7222934758,2457615.27558832,2457615.27532,17.608,0.0741687266
1.7287648159,2457615.27606828,2457615.2758,17.46,0.0631981012
1.735236156,2457615.27654824,2457615.27628,17.572,0.0711758386
1.7417075024,2457615.2770282,2457615.27676,17.377,0.0602079729
1.7479090469,2457615.27748815,2457615.27722,17.553,0.0701783442
1.7543803871,2457615.27796811,2457615.2777,17.658,0.0761642961
1.7673230673,2457615.27892803,2457615.27866,17.456,0.0622012862
1.7735247499,2457615.27938799,2457615.27912,17.232,0.0512445119
1.7804004476,2457615.27989794,2457615.27963,17.231,0.0522398315
1.7870066196,2457615.2803879,2457615.28012,17.429,0.0592114854
1.7932083022,2457615.28084786,2457615.28058,17.452,0.0691809222
1.7995448104,2457615.28131782,2457615.28105,17.463,0.0842140131
1.8061508506,2457615.28180777,2457615.28154,17.646,0.0951892851
1.8124873588,2457615.28227773,2457615.28201,17.401,0.0782304289
1.8188238734,2457615.28274769,2457615.28248,17.387,0.0813019065
1.8251603816,2457615.28321765,2457615.28295,17.083,0.06239391
1.8317664218,2457615.2837076,2457615.28344,17.587,0.1031746093
1.83810293,2457615.28417756,2457615.28391,17.539,0.0911975877
1.844709102,2457615.28466752,2457615.2844,17.504,0.0792275205
1.8511804484,2457615.28514748,2457615.28488,17.409,0.0742428448
1.8577866204,2457615.28563744,2457615.28537,17.461,0.0762364742
1.8641229968,2457615.28610739,2457615.28584,17.397,0.0712530701
1.870459505,2457615.28657735,2457615.28631,17.509,0.0801560977
1.8767960133,2457615.28704731,2457615.28678,17.184,0.0532353266
1.8834021916,2457615.28753727,2457615.28727,17.517,0.0771621669
1.8897385617,2457615.28800722,2457615.28774,17.387,0.0691809222
1.8960750762,2457615.28847718,2457615.28821,17.502,0.0761642961
1.9024115844,2457615.28894714,2457615.28868,17.379,0.0651920241
1.9091525883,2457615.2894471,2457615.28918,17.468,0.0711758386
1.9154891028,2457615.28991706,2457615.28965,17.404,0.0671863081
1.9220951367,2457615.29040701,2457615.29014,17.561,0.0751664819
1.9412394996,2457615.29182689,2457615.29156,17.307,0.0602079729
1.9477107079,2457615.29230684,2457615.29204,17.181,0.0532353266
1.954182048,2457615.2927868,2457615.29252,17.478,0.0691809222
1.9606533944,2457615.29326676,2457615.293,17.435,0.0651920241
1.9668550707,2457615.29372672,2457615.29346,17.142,0.0532353266
1.9738656003,2457615.29424667,2457615.29398,17.123,0.048259714
1.9803369467,2457615.29472663,2457615.29446,17.326,0.0592114854
1.986538623,2457615.29518659,2457615.29492,17.295,0.0582151183
1.9994813095,2457615.29614651,2457615.29588,17.301,0.0592114854
2.0058176859,2457615.29661646,2457615.29635,17.222,0.0512445119
2.0121541942,2457615.29708642,2457615.29682,17.216,0.0562227712
2.0184907024,2457615.29755638,2457615.29729,17.312,0.0592114854
2.0250968744,2457615.29804634,2457615.29778,17.211,0.0542309875
2.0315680827,2457615.29852629,2457615.29826,17.358,0.0592114854
2.0381742547,2457615.29901625,2457615.29875,17.359,0.0631981012
2.0447804267,2457615.29950621,2457615.29924,17.042,0.0432897216
2.0511169412,2457615.29997617,2457615.29971,17.129,0.0522398315
2.0573184857,2457615.30043612,2457615.30017,17.17,0.0502493781
2.0637898258,2457615.30091608,2457615.30065,17.267,0.0562227712
2.070261166,2457615.30139604,2457615.30113,17.284,0.0562227712
2.0767325124,2457615.301876,2457615.30161,17.269,0.0552268051
2.0832037206,2457615.30235595,2457615.30209,17.178,0.0512445119
2.0895402289,2457615.30282591,2457615.30256,17.252,0.0552268051
2.0958767371,2457615.30329587,2457615.30303,17.403,0.0691809222
2.102617741,2457615.30379583,2457615.30353,17.307,0.057218878
2.1089542555,2457615.30426579,2457615.304,17.315,0.0602079729
2.1220316358,2457615.3052357,2457615.30497,17.242,0.0573149195
2.1282333121,2457615.30569566,2457615.30543,17.223,0.0542309875
2.1347046523,2457615.30617562,2457615.30591,17.301,0.0582151183
2.1411759987,2457615.30665558,2457615.30639,17.425,0.0651920241
2.1603202234,2457615.30807545,2457615.30781,17.23,0.0582151183
2.1736672675,2457615.30906536,2457615.3088,17.319,0.0622012862
2.1798689438,2457615.30952532,2457615.30926,17.144,0.0502493781
2.1864751158,2457615.31001528,2457615.30975,17.376,0.0641950154
2.1928114922,2457615.31048523,2457615.31022,17.267,0.0562227712
2.1994176642,2457615.31097519,2457615.31071,17.253,0.0592114854
2.2057541787,2457615.31144515,2457615.31118,17.348,0.0681835757
2.2119558551,2457615.31190511,2457615.31164,17.38,0.0691809222
2.2184272015,2457615.31238507,2457615.31212,17.257,0.0602079729
2.2248984035,2457615.31286502,2457615.3126,17.327,0.066189123
2.2381107538,2457615.31384494,2457615.31358,17.34,0.0622012862
2.2445819558,2457615.31432489,2457615.31406,17.374,0.0691809222
2.2510533022,2457615.31480485,2457615.31454,17.264,0.061204575
2.2572549785,2457615.31526481,2457615.315,17.477,0.0751664819
2.270197665,2457615.31622473,2457615.31596,17.259,0.0602079729
2.2766688733,2457615.31670468,2457615.31644,17.301,0.0602079729
2.2828705497,2457615.31716464,2457615.3169,17.389,0.0691809222
2.2893418898,2457615.3176446,2457615.31738,17.446,0.0741687266
2.2962177256,2457615.31815456,2457615.31789,17.423,0.0721734023
2.302554102,2457615.31862451,2457615.31836,17.567,0.0792275205
2.3088906102,2457615.31909447,2457615.31883,17.483,0.0771621669
2.3218332967,2457615.32005439,2457615.31979,17.463,0.0751664819
2.3280349794,2457615.32051435,2457615.32025,17.608,0.0842140131
2.3345061813,2457615.3209943,2457615.32073,17.597,0.0862090482
2.3411123533,2457615.32148426,2457615.32122,17.393,0.066189123
2.3475836997,2457615.32196422,2457615.3217,17.496,0.0711758386
2.3540550399,2457615.32244418,2457615.32218,17.537,0.0791580697
2.36066108,2457615.32293413,2457615.32267,17.296,0.0632850693
2.3671324201,2457615.32341409,2457615.32315,17.347,0.0672681202
2.3733340965,2457615.32387405,2457615.32361,17.588,0.0842140131
2.3798054429,2457615.32435401,2457615.32409,17.438,0.1072986486
2.3862766449,2457615.32483396,2457615.32457,17.559,0.123259888
2.3928828232,2457615.32532392,2457615.32506,17.558,0.1213342491
2.3992193314,2457615.32579388,2457615.32553,17.629,0.1252557384
2.4055558397,2457615.32626384,2457615.326,17.546,0.1052330746
2.4249697345,2457615.32770371,2457615.32744,17.863,0.1101635148
2.4315759065,2457615.32819367,2457615.32793,17.441,0.0722495675
2.4380471084,2457615.32867362,2457615.32841,17.501,0.0802246845
2.4445184548,2457615.32915358,2457615.32889,17.545,0.0782304289
2.4507201312,2457615.32961354,2457615.32935,17.577,0.0882043083
2.4571914776,2457615.3300935,2457615.32983,17.774,0.0961873173
2.4636626796,2457615.33057345,2457615.33031,17.551,0.0822192192
2.470134026,2457615.33105341,2457615.33079,17.4,0.0672681202
2.4763357024,2457615.33151337,2457615.33125,17.636,0.0901997783
2.4826722169,2457615.33198333,2457615.33172,17.286,0.0662721661
2.4961540865,2457615.33298324,2457615.33272,17.58,0.0892020179
2.5023557692,2457615.3334432,2457615.33318,17.5,0.0792275205
2.5152983176,2457615.33440311,2457615.33414,17.595,0.0882043083
2.5217696577,2457615.33488307,2457615.33462,17.651,0.0971853898
2.5344426804,2457615.33582299,2457615.33556,17.625,0.0921954446
2.5409140206,2457615.33630295,2457615.33604,17.522,0.0882043083
2.5475200607,2457615.3367929,2457615.33653,17.877,0.1201499064
2.5605975728,2457615.33776282,2457615.3375,17.798,0.1121605991
2.5669340811,2457615.33823278,2457615.33797,17.702,0.1031746093
2.5732704575,2457615.33870273,2457615.33844,17.663,0.1001798383
2.579606972,2457615.33917269,2457615.33891,18.005,0.1291394595
2.586213144,2457615.33966265,2457615.3394,17.596,0.0991816515
2.5926844841,2457615.34014261,2457615.33988,17.992,0.1301383879
2.6053573687,2457615.34108252,2457615.34082,17.435,0.0772334125
2.6118287151,2457615.34156248,2457615.3413,17.56,0.0931933474
2.6184348871,2457615.34205244,2457615.34179,17.547,0.0901997783
2.6249060891,2457615.34253239,2457615.34227,17.912,0.1251439172
2.6313774355,2457615.34301235,2457615.34275,17.587,0.0911975877
2.6378487757,2457615.34349231,2457615.34323,17.695,0.0991816515
2.6506564922,2457615.34444222,2457615.34418,17.554,0.0901997783
2.6569930067,2457615.34491218,2457615.34465,17.595,0.0961873173
2.6635991787,2457615.34540214,2457615.34514,17.338,0.0732461603
2.6699356869,2457615.3458721,2457615.34561,17.559,0.0941912947
2.6762721952,2457615.34634206,2457615.34608,17.206,0.0693541635
2.6831478991,2457615.34685201,2457615.34659,17.71,0.1111620439
2.69568609,2457615.34778193,2457615.34752,17.167,0.066370174
2.7022921238,2457615.34827188,2457615.34801,17.163,0.0703491293
2.7088982958,2457615.34876184,2457615.3485,17.205,0.0703491293
2.7343790351,2457615.35065167,2457615.35039,17.555,0.1012422837
2.7408503815,2457615.35113163,2457615.35087,17.419,0.0872811549
