Phase,BJD,JD,V,V_error
0.261872801,2457610.1980843,2457610.19737,13.95,0.0102956301
0.2659173242,2457610.19838427,2457610.19767,13.953,0.0102956301
0.2700968112,2457610.19869425,2457610.19798,13.948,0.0116619038
0.2741413281,2457610.19899422,2457610.19828,13.992,0.0116619038
0.2783206832,2457610.19930419,2457610.19859,13.971,0.0125299641
0.2823653383,2457610.19960417,2457610.19889,13.931,0.0130384048
0.2862750297,2457610.19989414,2457610.19918,13.968,0.0125299641
0.2903195529,2457610.20019411,2457610.19948,13.945,0.0116619038
0.2946338654,2457610.20051409,2457610.1998,13.967,0.0102956301
0.2986783886,2457610.20081406,2457610.2001,13.942,0.0089442719
0.3028577438,2457610.20112403,2457610.20041,13.933,0.0094339811
0.3070372307,2457610.20143401,2457610.20072,13.942,0.0094339811
0.3110817476,2457610.20173398,2457610.20102,13.946,0.0094339811
0.3153959346,2457610.20205395,2457610.20134,13.955,0.0094339811
0.3194404516,2457610.20235392,2457610.20164,13.946,0.0089442719
0.3234851066,2457610.2026539,2457610.20194,13.94,0.0094339811
0.327394798,2457610.20294387,2457610.20223,13.927,0.0089442719
0.3314394531,2457610.20324385,2457610.20253,13.956,0.0094339811
0.3356188082,2457610.20355382,2457610.20284,13.958,0.0089442719
0.3396633314,2457610.20385379,2457610.20314,13.933,0.0089442719
0.344112344,2457610.20418376,2457610.20347,13.939,0.0089442719
0.348156999,2457610.20448374,2457610.20377,13.934,0.0089442719
0.3522015223,2457610.20478371,2457610.20407,13.938,0.0094339811
0.3563808711,2457610.20509368,2457610.20438,13.938,0.0094339811
0.3604255261,2457610.20539366,2457610.20468,13.945,0.0094339811
0.3643352175,2457610.20568363,2457610.20497,13.948,0.0094339811
0.3683797407,2457610.2059836,2457610.20527,13.96,0.0094339811
0.3724243958,2457610.20628358,2457610.20557,13.963,0.0080622577
0.3767385765,2457610.20660355,2457610.20589,13.958,0.0094339811
0.3807830997,2457610.20690352,2457610.20619,13.946,0.0089442719
0.3850974185,2457610.2072235,2457610.20651,13.938,0.0089442719
0.3891419355,2457610.20752347,2457610.20681,13.93,0.0080622577
0.3933212906,2457610.20783344,2457610.20712,13.946,0.0080622577
0.3973658138,2457610.20813341,2457610.20742,13.945,0.0080622577
0.4015453008,2457610.20844339,2457610.20773,13.951,0.0080622577
0.4054549858,2457610.20873336,2457610.20802,13.948,0.0080622577
0.4097691728,2457610.20905333,2457610.20834,13.956,0.0094339811
0.413678996,2457610.20934331,2457610.20863,13.953,0.0094339811
0.4177235192,2457610.20964328,2457610.20893,13.976,0.0094339811
0.421902868,2457610.20995325,2457610.20924,13.942,0.0094339811
0.426082355,2457610.21026323,2457610.20955,13.941,0.0094339811
0.4302617101,2457610.2105732,2457610.20986,13.963,0.0089442719
0.4344410589,2457610.21088317,2457610.21017,13.967,0.0086023253
0.438485714,2457610.21118315,2457610.21047,13.946,0.0089442719
0.4426650691,2457610.21149312,2457610.21078,13.962,0.0080622577
0.4467095923,2457610.21179309,2457610.21108,13.953,0.0094339811
0.4506194155,2457610.21208307,2457610.21137,13.946,0.0080622577
0.4546639387,2457610.21238304,2457610.21167,13.973,0.0080622577
0.4587084557,2457610.21268301,2457610.21197,13.954,0.0080622577
0.4630227745,2457610.21300299,2457610.21229,13.963,0.0080622577
0.4672021296,2457610.21331296,2457610.2126,13.947,0.0080622577
0.4712466465,2457610.21361293,2457610.2129,13.939,0.0080622577
0.4754260016,2457610.2139229,2457610.21321,13.949,0.0080622577
0.4796054886,2457610.21423288,2457610.21352,13.973,0.0080622577
0.4837848374,2457610.21454285,2457610.21383,13.958,0.0080622577
0.4878293606,2457610.21484282,2457610.21413,13.944,0.0080622577
0.4917391838,2457610.2151328,2457610.21442,13.952,0.0080622577
0.495783707,2457610.21543277,2457610.21472,13.946,0.0080622577
0.499828224,2457610.21573274,2457610.21502,13.965,0.0080622577
0.5040077109,2457610.21604272,2457610.21533,13.969,0.0080622577
0.5085915554,2457610.21638269,2457610.21567,13.954,0.0080622577
0.5123664149,2457610.21666266,2457610.21595,13.943,0.0080622577
0.5165459018,2457610.21697264,2457610.21626,13.961,0.0080622577
0.5207252569,2457610.21728261,2457610.21657,13.951,0.0080622577
0.5247697801,2457610.21758258,2457610.21687,13.977,0.0080622577
0.5288142971,2457610.21788255,2457610.21717,13.991,0.0080622577
0.5327241265,2457610.21817253,2457610.21746,13.956,0.0080622577
0.5367686435,2457610.2184725,2457610.21776,13.969,0.0080622577
0.5409481304,2457610.21878248,2457610.21807,13.962,0.0080622577
0.5449926537,2457610.21908245,2457610.21837,13.946,0.0072111026
0.5494416662,2457610.21941242,2457610.2187,13.961,0.0080622577
0.5534861895,2457610.21971239,2457610.219,13.964,0.0080622577
0.5575308445,2457610.22001237,2457610.2193,13.957,0.0080622577
0.5617101934,2457610.22032234,2457610.21961,13.948,0.0080622577
0.5657547166,2457610.22062231,2457610.21991,13.967,0.0080622577
0.5697993717,2457610.22092229,2457610.22021,13.962,0.0080622577
0.5741135586,2457610.22124226,2457610.22053,13.978,0.0080622577
0.5780232437,2457610.22153223,2457610.22082,13.968,0.0072111026
0.582067905,2457610.22183221,2457610.22112,13.955,0.0080622577
0.586112422,2457610.22213218,2457610.22142,13.975,0.0080622577
0.590426609,2457610.22245215,2457610.22174,13.969,0.0080622577
0.5944711259,2457610.22275212,2457610.22204,13.98,0.0080622577
0.598515781,2457610.2230521,2457610.22234,13.957,0.0080622577
0.602829968,2457610.22337207,2457610.22266,13.972,0.0080622577
0.6070093168,2457610.22368204,2457610.22297,13.962,0.0072111026
0.6110539719,2457610.22398202,2457610.22327,13.969,0.0080622577
0.6150984951,2457610.22428199,2457610.22357,13.963,0.0072111026
0.6190083183,2457610.22457197,2457610.22386,13.967,0.0080622577
0.6230528415,2457610.22487194,2457610.22416,13.953,0.0080622577
0.6270973647,2457610.22517191,2457610.22446,13.989,0.0080622577
0.6315463773,2457610.22550188,2457610.22479,13.949,0.0080622577
0.6355910324,2457610.22580186,2457610.22509,13.961,0.0072111026
0.6397703875,2457610.22611183,2457610.2254,13.978,0.0080622577
0.6438149044,2457610.2264118,2457610.2257,13.988,0.0080622577
0.6479942595,2457610.22672177,2457610.22601,13.943,0.0094339811
0.6520389146,2457610.22702175,2457610.22631,14.018,0.0086023253
0.6560834378,2457610.22732172,2457610.22661,13.964,0.0089442719
0.659993261,2457610.2276117,2457610.2269,14.004,0.0086023253
0.6640377842,2457610.22791167,2457610.2272,13.973,0.0080622577
0.668217133,2457610.22822164,2457610.22751,13.963,0.0080622577
0.6728009775,2457610.22856161,2457610.22785,13.969,0.0080622577
0.6767108007,2457610.22885159,2457610.22814,13.957,0.0080622577
0.6807553239,2457610.22915156,2457610.22844,13.944,0.0080622577
0.6847998471,2457610.22945153,2457610.22874,13.981,0.0080622577
0.689114166,2457610.22977151,2457610.22906,13.972,0.0086023253
0.6931586829,2457610.23007148,2457610.22936,13.979,0.0080622577
0.6972032061,2457610.23037145,2457610.22966,13.965,0.0080622577
0.7011130293,2457610.23066143,2457610.22995,13.961,0.0080622577
0.7052923844,2457610.2309714,2457610.23026,13.988,0.0086023253
0.7093369014,2457610.23127137,2457610.23056,13.978,0.0080622577
0.7139207458,2457610.23161134,2457610.2309,13.972,0.0080622577
0.7178305753,2457610.23190132,2457610.23119,13.988,0.0080622577
0.7218750922,2457610.23220129,2457610.23149,13.99,0.0080622577
0.7259197473,2457610.23250127,2457610.23179,13.961,0.0080622577
0.7300991024,2457610.23281124,2457610.2321,14.011,0.0080622577
0.7341436256,2457610.23311121,2457610.2324,13.971,0.0080622577
0.7383229745,2457610.23342118,2457610.23271,13.951,0.0080622577
0.7425024614,2457610.23373116,2457610.23302,13.963,0.0080622577
0.7462773209,2457610.23401113,2457610.2333,13.966,0.0080622577
0.750456676,2457610.2343211,2457610.23361,13.971,0.0080622577
0.7549058204,2457610.23465108,2457610.23394,13.977,0.0094339811
0.7588155118,2457610.23494105,2457610.23423,13.978,0.0094339811
0.762860035,2457610.23524102,2457610.23453,14.006,0.0102956301
0.76690469,2457610.235541,2457610.23483,13.971,0.0102956301
0.7710840389,2457610.23585097,2457610.23514,13.992,0.0094339811
0.7753982258,2457610.23617094,2457610.23546,13.969,0.0094339811
0.7794427428,2457610.23647091,2457610.23576,13.985,0.0102956301
0.7834874041,2457610.23677089,2457610.23606,13.97,0.0102956301
0.7873970892,2457610.23706086,2457610.23635,13.949,0.0094339811
0.7914417506,2457610.23736084,2457610.23665,13.975,0.0089442719
0.7958907631,2457610.23769081,2457610.23698,13.989,0.0080622577
0.7998004545,2457610.23798078,2457610.23727,13.976,0.0080622577
0.8041146352,2457610.23830075,2457610.23759,13.969,0.0089442719
0.8081591584,2457610.23860072,2457610.23789,13.983,0.0094339811
0.8122038135,2457610.2389007,2457610.23819,13.983,0.0094339811
0.8163831623,2457610.23921067,2457610.2385,13.983,0.0094339811
0.8204276855,2457610.23951064,2457610.2388,13.972,0.0094339811
0.8244723406,2457610.23981062,2457610.2391,13.972,0.0094339811
0.8283820319,2457610.24010059,2457610.23939,13.966,0.0094339811
0.832426687,2457610.24040057,2457610.23969,13.99,0.0102956301
0.8371452252,2457610.24075053,2457610.24004,13.995,0.0102956301
0.8411898866,2457610.24105051,2457610.24034,13.968,0.0116619038
0.8450995716,2457610.24134048,2457610.24063,13.982,0.0116619038
0.849144233,2457610.24164046,2457610.24093,13.983,0.0116619038
0.8531887499,2457610.24194043,2457610.24123,13.982,0.0094339811
0.8575029369,2457610.2422604,2457610.24155,13.993,0.0094339811
0.861547592,2457610.24256038,2457610.24185,14.002,0.0102956301
0.8654572833,2457610.24285035,2457610.24214,13.989,0.0094339811
0.869771464,2457610.24317032,2457610.24246,13.992,0.0102956301
0.8736812872,2457610.2434603,2457610.24275,14.011,0.0130384048
0.8781302998,2457610.24379027,2457610.24308,13.996,0.0116619038
0.8823096549,2457610.24410024,2457610.24339,14,0.0116619038
0.8860845144,2457610.24438021,2457610.24367,13.989,0.0108166538
0.8902640013,2457610.24469019,2457610.24398,13.986,0.0094339811
0.8944433501,2457610.24500016,2457610.24429,13.992,0.0094339811
0.8984878733,2457610.24530013,2457610.24459,13.985,0.0094339811
0.9026672285,2457610.2456101,2457610.2449,13.961,0.0102956301
0.9067118835,2457610.24591008,2457610.2452,13.981,0.0108166538
0.9107564005,2457610.24621005,2457610.2455,14.011,0.0116619038
0.9146662299,2457610.24650003,2457610.24579,13.974,0.013892444
0.9192500744,2457610.24684,2457610.24613,13.984,0.0125299641
0.9231597657,2457610.24712997,2457610.24642,13.981,0.013892444
0.9272042827,2457610.24742994,2457610.24672,14.017,0.0130384048
0.9312489378,2457610.24772992,2457610.24702,14.011,0.0125299641
0.9354282929,2457610.24803989,2457610.24733,13.994,0.0125299641
0.9394728098,2457610.24833986,2457610.24763,14.005,0.0130384048
0.9437871286,2457610.24865984,2457610.24795,13.986,0.0130384048
0.9478316519,2457610.24895981,2457610.24825,13.989,0.013892444
0.9517413432,2457610.24924978,2457610.24854,14.006,0.0116619038
0.9568645089,2457610.24962975,2457610.24892,13.995,0.0130384048
0.9611786959,2457610.24994972,2457610.24924,13.988,0.0125299641
0.9652232128,2457610.25024969,2457610.24954,13.993,0.0116619038
0.9692678679,2457610.25054967,2457610.24984,14.014,0.0102956301
0.9735820549,2457610.25086964,2457610.25016,14.005,0.0116619038
0.9776265718,2457610.25116961,2457610.25046,13.99,0.0108166538
0.9818060588,2457610.25147959,2457610.25077,14.029,0.0108166538
0.985850582,2457610.25177956,2457610.25107,14.02,0.0108166538
0.9897602733,2457610.25206953,2457610.25136,14.004,0.0116619038
0.9938049284,2457610.25236951,2457610.25166,14.002,0.013892444
0.9978494516,2457610.25266948,2457610.25196,13.998,0.0147648231
1.0022984642,2457610.25299945,2457610.25229,13.99,0.0116619038
1.0063429812,2457610.25329942,2457610.25259,14.008,0.0108166538
1.0105224681,2457610.2536094,2457610.2529,13.993,0.0102956301
1.0145669913,2457610.25390937,2457610.2532,14.017,0.0108166538
1.0187463464,2457610.25421934,2457610.25351,13.999,0.0108166538
1.0227910015,2457610.25451932,2457610.25381,13.978,0.0111803399
1.0268355184,2457610.25481929,2457610.25411,13.995,0.0094339811
1.0307453479,2457610.25510927,2457610.2544,13.99,0.0102956301
1.0347898649,2457610.25540924,2457610.2547,14.028,0.0094339811
1.03896922,2457610.25571921,2457610.25501,14.002,0.0094339811
1.0435530644,2457610.25605918,2457610.25535,14.004,0.0094339811
1.0474627558,2457610.25634915,2457610.25564,13.984,0.0094339811
1.0515074108,2457610.25664913,2457610.25594,13.999,0.0086023253
1.0555519341,2457610.2569491,2457610.25624,14.023,0.0086023253
1.0598661148,2457610.25726907,2457610.25656,14.008,0.0094339811
1.0639107698,2457610.25756905,2457610.25686,14.018,0.0094339811
1.0679552931,2457610.25786902,2457610.25716,14.006,0.0094339811
1.0718649844,2457610.25815899,2457610.25745,14.037,0.0125299641
1.0760444713,2457610.25846897,2457610.25776,14.034,0.0116619038
1.0800889883,2457610.25876894,2457610.25806,14.021,0.013892444
1.0846728328,2457610.25910891,2457610.2584,14.017,0.0116619038
1.0885825241,2457610.25939888,2457610.25869,14.03,0.0130384048
1.0926271792,2457610.25969886,2457610.25899,14.052,0.013892444
1.0966717024,2457610.25999883,2457610.25929,14.029,0.0130384048
1.1008510512,2457610.2603088,2457610.2596,14.005,0.0130384048
1.1048957126,2457610.26060878,2457610.2599,14.033,0.0144222051
1.1090750614,2457610.26091875,2457610.26021,14.014,0.0147648231
1.1131195846,2457610.26121872,2457610.26051,14.049,0.0116619038
1.1170294078,2457610.2615087,2457610.2608,14.019,0.0108166538
1.1212087629,2457610.26181867,2457610.26111,14.032,0.0094339811
1.1256577755,2457610.26214864,2457610.26144,14.021,0.0094339811
1.1295674668,2457610.26243861,2457610.26173,14.026,0.0094339811
1.1336121219,2457610.26273859,2457610.26203,14.026,0.0108166538
1.1376566388,2457610.26303856,2457610.26233,14.03,0.0094339811
1.1418359939,2457610.26334853,2457610.26264,14.032,0.0094339811
1.1461503128,2457610.26366851,2457610.26296,14.009,0.0102956301
1.1501948297,2457610.26396848,2457610.26326,14.02,0.0108166538
1.1542393529,2457610.26426845,2457610.26356,14.019,0.0102956301
1.1581491761,2457610.26455843,2457610.26385,13.996,0.0108166538
1.1621936993,2457610.2648584,2457610.26415,14.008,0.0102956301
1.1666427119,2457610.26518837,2457610.26448,14.025,0.0108166538
1.1705525414,2457610.26547835,2457610.26477,14.005,0.0116619038
1.1748667221,2457610.26579832,2457610.26509,14.005,0.0116619038
1.1789112453,2457610.26609829,2457610.26539,14.029,0.0108166538
1.1829557623,2457610.26639826,2457610.26569,14.016,0.0116619038
1.1871352492,2457610.26670824,2457610.266,13.983,0.0130384048
1.1911797724,2457610.26700821,2457610.2663,13.982,0.0116619038
1.1952242957,2457610.26730818,2457610.2666,14.005,0.0108166538
1.1991341188,2457610.26759816,2457610.26689,14.02,0.0108166538
1.2031786421,2457610.26789813,2457610.26719,14.02,0.0094339811
1.2078973121,2457610.2682481,2457610.26754,14.015,0.0102956301
1.2119418354,2457610.26854807,2457610.26784,13.997,0.0102956301
1.2158516585,2457610.26883805,2457610.26813,14.011,0.0102956301
1.2198961818,2457610.26913802,2457610.26843,14.024,0.0102956301
1.223940705,2457610.26943799,2457610.26873,14.018,0.0108166538
1.2282550175,2457610.26975797,2457610.26905,14.047,0.0108166538
1.2322995408,2457610.27005794,2457610.26935,14.025,0.0102956301
1.236344064,2457610.27035791,2457610.26965,14.022,0.0094339811
1.2405235509,2457610.27066789,2457610.26996,14.003,0.0108166538
1.2444332423,2457610.27095786,2457610.27025,14.003,0.0102956301
1.2488822549,2457610.27128783,2457610.27058,14.006,0.0094339811
1.2530616037,2457610.2715978,2457610.27089,14.026,0.0094339811
1.2568366013,2457610.27187778,2457610.27117,14.007,0.0094339811
1.2610159501,2457610.27218775,2457610.27148,14.028,0.0094339811
1.2650606052,2457610.27248773,2457610.27178,14.031,0.0094339811
1.2692399603,2457610.2727977,2457610.27209,14.038,0.0102956301
1.2734193091,2457610.27310767,2457610.2724,14.032,0.0094339811
1.2774638323,2457610.27340764,2457610.2727,14.008,0.0094339811
1.2854181787,2457610.27399759,2457610.27329,14.024,0.0102956301
1.2900020232,2457610.27433756,2457610.27363,14.009,0.0102956301
1.2940465464,2457610.27463753,2457610.27393,14.008,0.0102956301
1.2979563696,2457610.27492751,2457610.27422,13.995,0.0102956301
1.3020008928,2457610.27522748,2457610.27452,14.017,0.0102956301
1.3061802416,2457610.27553745,2457610.27483,14.033,0.0094339811
1.3102248967,2457610.27583743,2457610.27513,14.013,0.0102956301
1.3145390837,2457610.2761574,2457610.27545,13.988,0.0102956301
1.3185836006,2457610.27645737,2457610.27575,14.024,0.0108166538
1.322628262,2457610.27675735,2457610.27605,14.034,0.0108166538
1.326537947,2457610.27704732,2457610.27634,14.021,0.0108166538
1.3309869659,2457610.27737729,2457610.27667,14.03,0.0108166538
1.334896651,2457610.27766726,2457610.27696,14.026,0.0108166538
1.3393458017,2457610.27799724,2457610.27729,14.028,0.0111803399
1.343255493,2457610.27828721,2457610.27758,14.016,0.0102956301
1.3473000162,2457610.27858718,2457610.27788,14.018,0.0108166538
1.3513446713,2457610.27888716,2457610.27818,14.028,0.0094339811
1.3555240201,2457610.27919713,2457610.27849,14.031,0.0094339811
1.3595685434,2457610.2794971,2457610.27879,14.046,0.01
1.3634783666,2457610.27978708,2457610.27908,14.019,0.0102956301
1.3675228898,2457610.28008705,2457610.27938,14.046,0.0094339811
1.3722415661,2457610.28043702,2457610.27973,14.026,0.0094339811
1.3762860831,2457610.28073699,2457610.28003,14.028,0.0094339811
1.3803307444,2457610.28103697,2457610.28033,14.016,0.0094339811
1.3842404295,2457610.28132694,2457610.28062,14.021,0.0094339811
1.3882849527,2457610.28162691,2457610.28092,14.021,0.0094339811
1.3924644396,2457610.28193689,2457610.28123,14.026,0.0094339811
1.3965089629,2457610.28223686,2457610.28153,14.008,0.0094339811
1.4005534798,2457610.28253683,2457610.28183,14.018,0.0094339811
1.4048676668,2457610.2828568,2457610.28215,14.008,0.0094339811
1.4089123219,2457610.28315678,2457610.28245,14.009,0.0094339811
1.4132265026,2457610.28347675,2457610.28277,14.037,0.0094339811
1.4172710258,2457610.28377672,2457610.28307,14.041,0.0094339811
1.4213156809,2457610.2840767,2457610.28337,14.025,0.0094339811
1.4252253722,2457610.28436667,2457610.28366,14.03,0.0094339811
1.4292698954,2457610.28466664,2457610.28396,14.061,0.0094339811
1.4418080863,2457610.28559656,2457610.28489,14.001,0.0094339811
1.4458527414,2457610.28589654,2457610.28519,14.053,0.0094339811
1.4497624327,2457610.28618651,2457610.28548,14.052,0.0094339811
1.4543462772,2457610.28652648,2457610.28582,14.026,0.0094339811
1.4583907941,2457610.28682645,2457610.28612,14.038,0.0086023253
1.4623006173,2457610.28711643,2457610.28641,14.006,0.0102956301
1.4663451405,2457610.2874164,2457610.28671,14.008,0.0108166538
1.4705244956,2457610.28772637,2457610.28702,14.033,0.0116619038
1.4745690126,2457610.28802634,2457610.28732,14.029,0.0108166538
1.4786136676,2457610.28832632,2457610.28762,14.029,0.0094339811
1.4827930227,2457610.28863629,2457610.28793,14.046,0.01
1.486837546,2457610.28893626,2457610.28823,14.049,0.0094339811
1.4907473692,2457610.28922624,2457610.28852,14.039,0.0102956301
1.4953312136,2457610.28956621,2457610.28886,14.029,0.0108166538
1.4993757368,2457610.28986618,2457610.28916,14.012,0.0102956301
1.5035550857,2457610.29017615,2457610.28947,14.076,0.0094339811
1.5075997407,2457610.29047613,2457610.28977,14.039,0.0094339811
1.5115094321,2457610.2907661,2457610.29006,14.027,0.0094339811
1.5155540871,2457610.29106608,2457610.29036,14.017,0.0108166538
1.5198682741,2457610.29138605,2457610.29068,14.024,0.0108166538
1.5239127911,2457610.29168602,2457610.29098,14.037,0.0108166538
1.5279573143,2457610.29198599,2457610.29128,14.039,0.0108166538
1.5318671375,2457610.29227597,2457610.29157,14.035,0.0116619038
1.5363161501,2457610.29260594,2457610.2919,14.05,0.0116619038
1.5406303371,2457610.29292591,2457610.29222,14.026,0.0130384048
1.544674854,2457610.29322588,2457610.29252,14.044,0.0116619038
1.5485846835,2457610.29351586,2457610.29281,14.036,0.0130384048
1.5526292004,2457610.29381583,2457610.29311,14.059,0.0116619038
1.5566737236,2457610.2941158,2457610.29341,14.012,0.0130384048
1.5608532106,2457610.29442578,2457610.29372,14.067,0.0144222051
