Phase,BJD,JD,V,V_error
0.8250526558,2457817.53661866,2457817.53347,17.641,0.0290137889
0.8297721358,2457817.53696869,2457817.53382,17.534,0.0270148092
0.834491622,2457817.53731872,2457817.53417,17.643,0.0310128996
0.8390761383,2457817.53765874,2457817.53451,17.457,0.0260153782
0.8437956246,2457817.53800877,2457817.53486,17.565,0.029013788
0.8485151109,2457817.5383588,2457817.53521,17.555,0.0290137881
0.8532345909,2457817.53870883,2457817.53556,17.505,0.026015378
0.8578192453,2457817.53904886,2457817.5359,17.567,0.0270148089
0.8625385997,2457817.53939888,2457817.53625,17.581,0.0270148096
0.8672580797,2457817.53974891,2457817.5366,17.543,0.0280142804
0.871977566,2457817.54009894,2457817.53695,17.574,0.0260153781
0.8765622204,2457817.54043897,2457817.53729,17.532,0.0270148099
0.8812817067,2457817.540789,2457817.53764,17.415,0.0240166598
0.8860011867,2457817.54113903,2457817.53799,17.519,0.0280142811
0.8905857092,2457817.54147905,2457817.53833,17.554,0.0280142809
0.8953051892,2457817.54182908,2457817.53868,17.5,0.0260153783
0.9000246755,2457817.54217911,2457817.53903,17.562,0.0270148097
0.9047441618,2457817.54252914,2457817.53938,17.562,0.0270148087
0.9093288162,2457817.54286917,2457817.53972,17.539,0.0270148092
0.9140481644,2457817.54321919,2457817.54007,17.593,0.0270148097
0.9187676506,2457817.54356922,2457817.54042,17.608,0.0290137884
0.9234871306,2457817.54391925,2457817.54077,17.614,0.0280142806
0.928071785,2457817.54425928,2457817.54111,17.552,0.0260153785
0.9327912713,2457817.54460931,2457817.54146,17.569,0.0280142802
0.9375106195,2457817.54495933,2457817.54181,17.627,0.0290137881
0.9420952739,2457817.54529936,2457817.54215,17.67,0.0300133292
0.9468147602,2457817.54564939,2457817.5425,17.63,0.0280142799
0.9515342402,2457817.54599942,2457817.54285,17.643,0.0290137878
0.9562537265,2457817.54634945,2457817.5432,17.633,0.0270148091
0.9608382427,2457817.54668947,2457817.54354,17.661,0.0320124964
0.965557729,2457817.5470395,2457817.54389,17.617,0.0300133286
0.9702772153,2457817.54738953,2457817.54424,17.623,0.0300133292
0.9749966953,2457817.54773956,2457817.54459,17.634,0.0290137894
0.9795813497,2457817.54807959,2457817.54493,17.609,0.0280142803
0.984300836,2457817.54842962,2457817.54528,17.597,0.0280142802
0.9890201841,2457817.54877964,2457817.54563,17.597,0.0290137887
0.9937396704,2457817.54912967,2457817.54598,17.625,0.029013788
0.9983243248,2457817.5494697,2457817.54632,17.619,0.028014281
1.0030438111,2457817.54981973,2457817.54667,17.62,0.0270148093
1.0077632911,2457817.55016976,2457817.54702,17.638,0.0280142808
1.0123478137,2457817.55050978,2457817.54736,17.625,0.0290137884
1.0170672937,2457817.55085981,2457817.54771,17.641,0.0290137881
1.0217867799,2457817.55120984,2457817.54806,17.661,0.0300133289
1.0265062662,2457817.55155987,2457817.54841,17.659,0.0300133292
1.0310909206,2457817.5518999,2457817.54875,17.639,0.0330121174
1.0358104006,2457817.55224993,2457817.5491,17.699,0.0320124959
1.0405297551,2457817.55259995,2457817.54945,17.701,0.0330121175
1.0452492351,2457817.55294998,2457817.5498,17.703,0.0340117618
1.0498338895,2457817.55329001,2457817.55014,17.641,0.0280142802
1.0545533757,2457817.55364004,2457817.55049,17.663,0.0300133286
1.0592728557,2457817.55399007,2457817.55084,17.662,0.0290137882
1.0638573783,2457817.55433009,2457817.55118,17.597,0.0290137881
1.0685768646,2457817.55468012,2457817.55153,17.656,0.032012496
1.0732963446,2457817.55503015,2457817.55188,17.692,0.034011762
1.0780158309,2457817.55538018,2457817.55223,17.762,0.0330121178
1.0826003471,2457817.5557202,2457817.55257,17.674,0.0330121183
1.0873198334,2457817.55607023,2457817.55292,17.764,0.0320124957
1.0920393197,2457817.55642026,2457817.55327,17.697,0.0320124964
1.0967587997,2457817.55677029,2457817.55362,17.807,0.031012899
1.1013434541,2457817.55711032,2457817.55396,17.826,0.0330121174
1.1060629404,2457817.55746035,2457817.55431,17.774,0.0340117615
1.1107822885,2457817.55781037,2457817.55466,17.765,0.0340117611
1.1153669429,2457817.5581504,2457817.555,17.851,0.0360111078
1.1200864292,2457817.55850043,2457817.55535,17.865,0.0360111081
1.1248059155,2457817.55885046,2457817.5557,17.797,0.0360111075
1.1295253955,2457817.55920049,2457817.55605,17.821,0.0320124957
1.1341099181,2457817.55954051,2457817.55639,17.772,0.0330121176
1.1388293981,2457817.55989054,2457817.55674,17.813,0.0330121183
1.1435488843,2457817.56024057,2457817.55709,17.877,0.0360111079
1.1482683706,2457817.5605906,2457817.55744,17.794,0.0340117608
1.152853025,2457817.56093063,2457817.55778,17.815,0.0320124958
1.1575723732,2457817.56128065,2457817.55813,17.874,0.034011761
1.1622918595,2457817.56163068,2457817.55848,17.829,0.0350114253
1.1670113395,2457817.56198071,2457817.55883,17.885,0.0370108082
1.1715959939,2457817.56232074,2457817.55917,17.865,0.0320124961
1.1763154802,2457817.56267077,2457817.55952,17.891,0.0350114252
1.1810349602,2457817.5630208,2457817.55987,17.95,0.0380105233
1.1856194827,2457817.56336082,2457817.56021,17.757,0.0340117621
1.190338969,2457817.56371085,2457817.56056,17.911,0.039010254
1.195058449,2457817.56406088,2457817.56091,17.839,0.0340117614
1.1997779353,2457817.56441091,2457817.56126,17.792,0.0320124958
1.2043624516,2457817.56475093,2457817.5616,17.871,0.0360111083
1.2090819378,2457817.56510096,2457817.56195,17.897,0.0340117609
1.2138014241,2457817.56545099,2457817.5623,17.842,0.0320124957
1.2185209041,2457817.56580102,2457817.56265,17.841,0.0340117614
1.2231055585,2457817.56614105,2457817.56299,17.872,0.0360111081
1.227824913,2457817.56649107,2457817.56334,17.828,0.0320124966
1.232544393,2457817.5668411,2457817.56369,17.795,0.0340117613
1.2371290474,2457817.56718113,2457817.56403,17.874,0.038010524
1.2418485336,2457817.56753116,2457817.56438,17.895,0.0340117612
1.2465680199,2457817.56788119,2457817.56473,17.915,0.0370108084
1.2512874999,2457817.56823122,2457817.56508,17.855,0.035011425
1.2558720225,2457817.56857124,2457817.56542,17.8,0.0330121176
1.2605915025,2457817.56892127,2457817.56577,17.834,0.0340117615
1.2653109888,2457817.5692713,2457817.56612,17.751,0.0310128991
1.270030475,2457817.56962133,2457817.56647,17.882,0.0330121176
1.2746151294,2457817.56996136,2457817.56681,17.878,0.0320124961
1.2793344776,2457817.57031138,2457817.56716,17.878,0.0360111078
1.2840539639,2457817.57066141,2457817.56751,17.691,0.0290137882
1.288638612,2457817.57100144,2457817.56785,17.853,0.0340117614
1.2933580983,2457817.57135147,2457817.5682,17.882,0.0330121173
1.2980774464,2457817.57170149,2457817.56855,17.822,0.0330121174
1.3027969327,2457817.57205152,2457817.5689,17.852,0.0340117614
1.3073815871,2457817.57239155,2457817.56924,17.857,0.035011426
1.3121010734,2457817.57274158,2457817.56959,17.78,0.0320124958
1.3168205534,2457817.57309161,2457817.56994,17.846,0.0340117613
1.3215400397,2457817.57344164,2457817.57029,17.807,0.0320124958
1.326124556,2457817.57378166,2457817.57063,17.834,0.0330121175
1.3308440422,2457817.57413169,2457817.57098,17.78,0.0310128986
1.3355635285,2457817.57448172,2457817.57133,17.843,0.0340117611
1.3402830085,2457817.57483175,2457817.57168,17.808,0.0350114251
1.3448676629,2457817.57517178,2457817.57202,17.887,0.0380105233
1.3495870174,2457817.5755218,2457817.57237,17.805,0.0330121177
1.3543064974,2457817.57587183,2457817.57272,17.682,0.029013789
1.3588911518,2457817.57621186,2457817.57306,17.768,0.0290137883
1.363610638,2457817.57656189,2457817.57341,17.814,0.0340117613
1.3683301243,2457817.57691192,2457817.57376,17.748,0.0320124958
1.3730494725,2457817.57726194,2457817.57411,17.756,0.0330121178
1.3776341269,2457817.57760197,2457817.57445,17.854,0.0340117612
1.3823536069,2457817.577952,2457817.5748,17.782,0.0320124958
1.3870730932,2457817.57830203,2457817.57515,17.729,0.0300133282
1.3917925795,2457817.57865206,2457817.5755,17.773,0.0310128991
1.3963770957,2457817.57899208,2457817.57584,17.775,0.0320124962
1.401096582,2457817.57934211,2457817.57619,17.848,0.0350114253
1.4058160683,2457817.57969214,2457817.57654,17.828,0.0320124961
1.4104007164,2457817.58003217,2457817.57688,17.782,0.032012496
1.4151202027,2457817.5803822,2457817.57723,17.773,0.0320124958
1.4198395509,2457817.58073222,2457817.57758,17.807,0.0340117611
1.4245590371,2457817.58108225,2457817.57793,17.785,0.0310128992
1.4291436915,2457817.58142228,2457817.57827,17.798,0.0320124957
1.4338631778,2457817.58177231,2457817.57862,17.791,0.0300133283
1.4385826578,2457817.58212234,2457817.57897,17.743,0.0300133292
1.4433020123,2457817.58247236,2457817.57932,17.8,0.0320124957
1.4478866604,2457817.58281239,2457817.57966,17.745,0.0300133284
1.4526061467,2457817.58316242,2457817.58001,17.83,0.0330121173
1.4573256329,2457817.58351245,2457817.58036,17.782,0.0330121175
1.4619102873,2457817.58385248,2457817.5807,17.825,0.0330121172
1.4666296355,2457817.5842025,2457817.58105,17.831,0.0320124962
1.4713491218,2457817.58455253,2457817.5814,17.752,0.0310128994
1.4760686018,2457817.58490256,2457817.58175,17.735,0.030013329
1.4806532562,2457817.58524259,2457817.58209,17.814,0.0330121174
1.4853727425,2457817.58559262,2457817.58244,17.887,0.0350114252
1.4900920906,2457817.58594264,2457817.58279,17.826,0.0360111082
1.4948115769,2457817.58629267,2457817.58314,17.876,0.0350114251
1.4993962313,2457817.5866327,2457817.58348,17.837,0.0340117613
1.5041157113,2457817.58698273,2457817.58383,17.917,0.0350114256
1.5088351976,2457817.58733276,2457817.58418,17.881,0.0360111088
1.5135545457,2457817.58768278,2457817.58453,17.858,0.0350114254
1.5181392001,2457817.58802281,2457817.58487,17.859,0.0370108078
1.5228586864,2457817.58837284,2457817.58522,17.87,0.0330121186
1.5275781727,2457817.58872287,2457817.58557,17.887,0.035011425
1.5321628208,2457817.5890629,2457817.58591,17.891,0.0370108077
1.5368821753,2457817.58941292,2457817.58626,17.824,0.034011761
1.5416016553,2457817.58976295,2457817.58661,17.899,0.0360111078
1.5463211415,2457817.59011298,2457817.58696,17.915,0.0380105234
1.5509057959,2457817.59045301,2457817.5873,17.874,0.036011108
1.5556252822,2457817.59080304,2457817.58765,17.85,0.0340117612
1.5603446304,2457817.59115306,2457817.588,17.815,0.0340117618
1.5650641167,2457817.59150309,2457817.58835,17.915,0.038010524
1.5696487648,2457817.59184312,2457817.58869,17.902,0.035011425
1.5743682511,2457817.59219315,2457817.58904,17.91,0.0370108082
1.5790875992,2457817.59254317,2457817.58939,17.976,0.040009998
1.5836722536,2457817.5928832,2457817.58973,17.915,0.0370108079
1.5883917399,2457817.59323323,2457817.59008,17.988,0.0390102538
1.5931112262,2457817.59358326,2457817.59043,17.937,0.0380105236
1.5978307062,2457817.59393329,2457817.59078,17.958,0.0390102539
1.6024152287,2457817.59427331,2457817.59112,17.892,0.0340117619
1.6071347087,2457817.59462334,2457817.59147,17.877,0.0360111081
1.611854195,2457817.59497337,2457817.59182,17.814,0.0330121177
1.6165736813,2457817.5953234,2457817.59217,17.924,0.0380105231
1.6211583357,2457817.59566343,2457817.59251,17.889,0.0360111082
1.6258778157,2457817.59601346,2457817.59286,17.971,0.0400099977
1.6305971701,2457817.59636348,2457817.59321,17.963,0.0380105234
1.6353166502,2457817.59671351,2457817.59356,17.959,0.0370108079
1.6399013046,2457817.59705354,2457817.5939,17.922,0.036011108
1.6446207908,2457817.59740357,2457817.59425,17.954,0.0360111079
1.649340139,2457817.59775359,2457817.5946,17.846,0.0330121175
1.6539247934,2457817.59809362,2457817.59494,17.841,0.0340117614
1.6586442797,2457817.59844365,2457817.59529,17.916,0.0370108079
1.6633637597,2457817.59879368,2457817.59564,17.868,0.0330121175
1.668083246,2457817.59914371,2457817.59599,17.825,0.0330121178
1.6726677622,2457817.59948373,2457817.59633,17.876,0.0370108086
1.6773872485,2457817.59983376,2457817.59668,17.862,0.0330121186
1.6821067348,2457817.60018379,2457817.59703,17.895,0.034011761
1.6868262211,2457817.60053382,2457817.59738,17.938,0.0350114254
1.6914108692,2457817.60087385,2457817.59772,17.899,0.0340117613
1.6961302236,2457817.60122387,2457817.59807,17.823,0.0330121174
1.7008497036,2457817.6015739,2457817.59842,17.91,0.034011761
1.705434358,2457817.60191393,2457817.59876,17.959,0.0380105234
1.7101538443,2457817.60226396,2457817.59911,17.948,0.0380105232
1.7148733306,2457817.60261399,2457817.59946,17.952,0.0360111081
1.7195926788,2457817.60296401,2457817.59981,17.812,0.0330121178
1.7241773332,2457817.60330404,2457817.60015,17.863,0.0330121175
1.7288968132,2457817.60365407,2457817.6005,17.959,0.0350114253
1.7336162994,2457817.6040041,2457817.60085,17.805,0.032012496
1.7383357857,2457817.60435413,2457817.6012,17.949,0.0340117617
1.742920302,2457817.60469415,2457817.60154,17.853,0.0320124963
1.7476397883,2457817.60504418,2457817.60189,17.931,0.0360111083
1.7523592746,2457817.60539421,2457817.60224,17.78,0.0340117613
1.7569439227,2457817.60573424,2457817.60258,17.915,0.0350114254
1.7616632771,2457817.60608426,2457817.60293,17.871,0.0330121188
1.7663827571,2457817.60643429,2457817.60328,17.804,0.0320124958
1.7711022434,2457817.60678432,2457817.60363,17.762,0.0300133287
1.7756868978,2457817.60712435,2457817.60397,17.783,0.0330121174
1.7804063841,2457817.60747438,2457817.60432,17.796,0.0330121174
1.7851258641,2457817.60782441,2457817.60467,17.734,0.0290137874
1.7898452185,2457817.60817443,2457817.60502,17.84,0.032012496
1.7944298666,2457817.60851446,2457817.60536,17.855,0.0330121176
1.7991493529,2457817.60886449,2457817.60571,17.778,0.0320124965
1.8038688392,2457817.60921452,2457817.60606,17.732,0.0320124959
1.8319158106,2457817.61129468,2457817.60814,17.682,0.0290137884
1.8366352969,2457817.61164471,2457817.60849,17.72,0.0290137881
1.8459394376,2457817.61233477,2457817.60918,17.736,0.0280142803
1.8506589176,2457817.6126848,2457817.60953,17.628,0.0270148083
1.855378272,2457817.61303482,2457817.60988,17.686,0.0260153776
1.860097752,2457817.61338485,2457817.61023,17.613,0.0270148091
1.8694018927,2457817.61407491,2457817.61092,17.663,0.0280142806
1.874121379,2457817.61442494,2457817.61127,17.601,0.026015378
1.8787058952,2457817.61476496,2457817.61161,17.659,0.029013788
1.8834253815,2457817.61511499,2457817.61196,17.735,0.031012899
1.8881448615,2457817.61546502,2457817.61231,17.635,0.0290137886
1.8928643478,2457817.61581505,2457817.61266,17.674,0.0290137883
1.8974488641,2457817.61615507,2457817.613,17.639,0.0280142801
1.9021683504,2457817.6165051,2457817.61335,17.685,0.0320124959
1.9068878366,2457817.61685513,2457817.6137,17.609,0.0260153779
1.9116073229,2457817.61720516,2457817.61405,17.599,0.0270148085
1.9161919711,2457817.61754519,2457817.61439,17.555,0.0260153779
1.9209113255,2457817.61789521,2457817.61474,17.629,0.0260153782
1.9256308055,2457817.61824524,2457817.61509,17.651,0.0260153779
1.9303502918,2457817.61859527,2457817.61544,17.646,0.0290137881
1.9349349462,2457817.6189353,2457817.61578,17.632,0.0270148089
1.9396544325,2457817.61928533,2457817.61613,17.644,0.0270148083
1.9443737806,2457817.61963535,2457817.61648,17.731,0.0300133286
1.948958435,2457817.61997538,2457817.61682,17.64,0.0270148091
1.953677915,2457817.62032541,2457817.61717,17.636,0.0290137883
1.9583974013,2457817.62067544,2457817.61752,17.687,0.0280142803
1.9631167494,2457817.62102546,2457817.61787,17.644,0.0280142801
1.9677014038,2457817.62136549,2457817.61821,17.705,0.0300133292
1.9724208901,2457817.62171552,2457817.61856,17.658,0.0280142806
1.9771403764,2457817.62206555,2457817.61891,17.607,0.0270148085
1.9818598564,2457817.62241558,2457817.61926,17.639,0.0270148089
1.986444379,2457817.6227556,2457817.6196,17.619,0.0270148087
1.991163859,2457817.62310563,2457817.61995,17.696,0.0270148091
1.9958833453,2457817.62345566,2457817.6203,17.701,0.0290137885
2.0004679997,2457817.62379569,2457817.62064,17.661,0.0270148084
2.0051874859,2457817.62414572,2457817.62099,17.715,0.0280142803
2.0099068341,2457817.62449574,2457817.62134,17.576,0.0260153781
2.0146263204,2457817.62484577,2457817.62169,17.679,0.0270148091
2.0192109685,2457817.6251858,2457817.62203,17.597,0.0260153785
2.0239304548,2457817.62553583,2457817.62238,17.745,0.0310128988
2.0286498029,2457817.62588585,2457817.62273,17.765,0.0320124961
2.0333692892,2457817.62623588,2457817.62308,17.753,0.0290137883
2.0379539436,2457817.62657591,2457817.62342,17.746,0.0320124956
2.0426734299,2457817.62692594,2457817.62377,17.693,0.029013788
2.0473929099,2457817.62727597,2457817.62412,17.678,0.027014809
2.0519774325,2457817.62761599,2457817.62446,17.799,0.0340117614
2.0566969125,2457817.62796602,2457817.62481,17.752,0.029013788
2.0614163987,2457817.62831605,2457817.62516,17.748,0.0310128985
2.066135885,2457817.62866608,2457817.62551,17.749,0.0300133283
2.0707204013,2457817.6290061,2457817.62585,17.782,0.0310128986
2.0754398876,2457817.62935613,2457817.6262,17.835,0.0330121175
2.0801593739,2457817.62970616,2457817.62655,17.759,0.0290137876
2.0848788539,2457817.63005619,2457817.6269,17.853,0.0350114253
2.0894635083,2457817.63039622,2457817.62724,17.817,0.0310128985
2.0941828564,2457817.63074624,2457817.62759,17.789,0.0320124959
2.0989023427,2457817.63109627,2457817.62794,17.905,0.0370108081
2.103621829,2457817.6314463,2457817.62829,17.856,0.0340117614
2.1082064834,2457817.63178633,2457817.62863,17.954,0.0360111079
2.1129259634,2457817.63213636,2457817.62898,17.896,0.0350114248
2.1176453178,2457817.63248638,2457817.62933,17.879,0.0350114253
2.1222299659,2457817.63282641,2457817.62967,17.91,0.0330121172
2.1269494522,2457817.63317644,2457817.63002,17.876,0.0330121172
2.1316689385,2457817.63352647,2457817.63037,17.873,0.0330121174
2.1363884248,2457817.6338765,2457817.63072,17.905,0.0320124967
2.1409729411,2457817.63421652,2457817.63106,17.896,0.035011425
2.1456924273,2457817.63456655,2457817.63141,17.923,0.0370108076
2.1504119073,2457817.63491658,2457817.63176,17.932,0.036011108
2.1551313936,2457817.63526661,2457817.63211,17.864,0.0350114254
2.1597159099,2457817.63560663,2457817.63245,17.997,0.0380105234
2.1644353962,2457817.63595666,2457817.6328,17.978,0.0370108079
2.1691548825,2457817.63630669,2457817.63315,17.922,0.0360111079
2.1737395369,2457817.63664672,2457817.63349,17.963,0.0380105236
2.1784590169,2457817.63699675,2457817.63384,17.881,0.0340117619
2.1831783713,2457817.63734677,2457817.63419,17.87,0.0350114251
2.1878978513,2457817.6376968,2457817.63454,17.953,0.0400099974
2.1924825057,2457817.63803683,2457817.63488,17.932,0.036011108
2.197201992,2457817.63838686,2457817.63523,17.961,0.0390102538
2.2019214783,2457817.63873689,2457817.63558,17.976,0.0390102538
2.2066408264,2457817.63908691,2457817.63593,17.936,0.0360111078
2.2112254808,2457817.63942694,2457817.63627,17.988,0.0410097534
2.2159449608,2457817.63977697,2457817.63662,18.006,0.041009754
2.2206644471,2457817.640127,2457817.63697,17.973,0.0380105239
2.2252489697,2457817.64046702,2457817.63731,17.914,0.0380105231
2.2299684497,2457817.64081705,2457817.63766,18.009,0.0390102536
2.2346879359,2457817.64116708,2457817.63801,17.91,0.0350114255
2.2394074222,2457817.64151711,2457817.63836,17.847,0.0360111079
2.2439919385,2457817.64185713,2457817.6387,17.973,0.0410097536
2.2487114248,2457817.64220716,2457817.63905,17.938,0.0390102539
2.2534309048,2457817.64255719,2457817.6394,17.983,0.0410097535
